"","Open","High","Low","Close","Volume","Adjusted"
"2015-01-02",67.059998,67.68,65.910004,66.650002,224400,63.436165
"2015-01-05",66.199997,66.629997,64,64.599998,591700,61.485027
"2015-01-06",64.849998,65,63.48,63.91,289200,60.828297
"2015-01-07",64.510002,64.620003,63.869999,64.279999,261400,61.180454
"2015-01-08",64.769997,66.139999,64.769997,66.110001,305300,62.922215
"2015-01-09",66.43,66.699997,65.419998,65.470001,225500,62.313072
"2015-01-12",65.489998,66.139999,64.949997,65.370003,215000,62.217911
"2015-01-13",65.790001,66.529999,64.260002,65.169998,276200,62.027542
"2015-01-14",64.279999,64.980003,63.900002,64.599998,222600,61.485027
"2015-01-15",64.660004,65.019997,63.450001,63.779999,302100,60.704563
"2015-01-16",63.73,64.68,63.369999,64.470001,153200,61.361298
"2015-01-20",64.300003,64.970001,63.669998,64.209999,198600,61.113834
"2015-01-21",63.82,64.709999,63.650002,64.339996,166400,61.23756
"2015-01-22",64.620003,65.07,63.830002,64.709999,407500,61.589729
"2015-01-23",64.739998,64.910004,63.75,63.759998,237400,60.685528
"2015-01-26",63.580002,64.010002,63.18,63.77,292000,60.962765
"2015-01-27",63.060001,63.549999,62.599998,62.889999,509500,60.121506
"2015-01-28",63.169998,63.580002,61.889999,62.09,365100,59.35672
"2015-01-29",62.389999,63.23,61.389999,63,251300,60.226665
"2015-01-30",62.580002,63.349998,62.18,63.110001,383400,60.331821
"2015-02-02",63.23,63.849998,62.709999,63.540001,525700,60.742889
"2015-02-03",63.66,64.419998,63.310001,63.470001,335200,60.675976
"2015-02-04",63.259998,63.970001,62.950001,63.220001,406900,60.436981
"2015-02-05",63.740002,64.339996,63.400002,63.810001,389900,61.001007
"2015-02-06",64.089996,66.599998,63.759998,64.330002,928000,61.498123
"2015-02-09",64.040001,64.43,63.18,63.650002,622300,60.848049
"2015-02-10",64.040001,64.309998,63.41,63.73,531600,60.924526
"2015-02-11",63.5,64.050003,63.380001,63.68,455300,60.876728
"2015-02-12",63.950001,64.550003,63.669998,64.07,442700,61.249561
"2015-02-13",64.110001,64.739998,63.889999,64.559998,135600,61.717983
"2015-02-17",64.129997,65.690002,64.129997,65.25,288300,62.377613
"2015-02-18",64.989998,65.830002,64.989998,65.830002,339500,62.932083
"2015-02-19",65.410004,66.269997,65.139999,65.839996,221900,62.941643
"2015-02-20",65.940002,66.260002,65.139999,66.169998,271400,63.257122
"2015-02-23",65.919998,66.400002,65.57,66.269997,168000,63.352718
"2015-02-24",66.139999,66.400002,65.68,66.300003,239000,63.381401
"2015-02-25",66.18,66.379997,65.449997,65.849998,314400,62.951199
"2015-02-26",65.849998,66.349998,65.739998,66.260002,169000,63.343159
"2015-02-27",66.169998,66.379997,65.559998,65.870003,264700,62.970325
"2015-03-02",65.870003,66.559998,65.529999,66.5,251200,63.57259
"2015-03-03",66.080002,66.449997,65.599998,65.889999,186900,62.989437
"2015-03-04",65.919998,66.029999,64.870003,65.620003,230200,62.731335
"2015-03-05",65.559998,65.919998,64.629997,65.029999,254200,62.167301
"2015-03-06",64.800003,65.010002,63.919998,64.269997,271200,61.44075
"2015-03-09",64.129997,64.699997,63.91,64.18,258900,61.354717
"2015-03-10",63.630001,64.019997,63.400002,63.75,328200,60.943642
"2015-03-11",63.75,63.82,62.709999,63.360001,478200,60.570816
"2015-03-12",63.709999,64.160004,63.23,63.560001,312400,60.762016
"2015-03-13",63.43,63.73,62.860001,63.099998,236900,60.322262
"2015-03-16",63.43,64,63.32,63.790001,193800,60.981888
"2015-03-17",63.650002,63.93,62.57,63.610001,335600,60.809811
"2015-03-18",63.490002,64.540001,63.23,63.950001,459700,61.134846
"2015-03-19",63.73,64.129997,63.189999,63.639999,296600,60.838493
"2015-03-20",63.73,63.939999,63.209999,63.23,608400,60.446545
"2015-03-23",63.349998,63.900002,63.040001,63.389999,331000,60.599491
"2015-03-24",63.259998,63.790001,63.139999,63.5,477100,60.704647
"2015-03-25",63.43,63.91,62.869999,62.98,346000,60.207542
"2015-03-26",62.82,63.169998,62.709999,62.98,254200,60.207542
"2015-03-27",63.029999,63.32,62.77,63.18,163000,60.398735
"2015-03-30",63.41,63.98,63.259998,63.700001,263400,60.895851
"2015-03-31",63.259998,63.799999,63.209999,63.52,349600,60.723778
"2015-04-01",63.580002,63.830002,62.82,63.650002,403300,60.848049
"2015-04-02",63.509998,63.84,62.959999,63.150002,346700,60.370056
"2015-04-06",62.919998,63.43,62.759998,63.380001,393100,60.589931
"2015-04-07",63.299999,63.5,62.990002,63.110001,157400,60.331821
"2015-04-08",63.119999,63.5,62.849998,63.419998,184600,60.628178
"2015-04-09",63.290001,63.459999,62.860001,63.330002,191300,60.542137
"2015-04-10",63.439999,63.57,63.18,63.490002,316000,60.695095
"2015-04-13",63.049999,63.669998,63.009998,63.43,343300,60.637737
"2015-04-14",63.470001,63.73,63.139999,63.299999,320900,60.513458
"2015-04-15",63.580002,63.599998,62.91,63,247400,60.226665
"2015-04-16",63.32,63.52,62.830002,63.009998,380300,60.236221
"2015-04-17",62.720001,62.990002,61.98,62.84,310900,60.073711
"2015-04-20",63.07,63.259998,62.73,62.810001,300100,60.045033
"2015-04-21",63.119999,63.279999,62.5,62.720001,235900,59.958992
"2015-04-22",62.68,63.470001,62.439999,62.880001,169200,60.11195
"2015-04-23",62.700001,63.110001,62.700001,62.939999,289900,60.169304
"2015-04-24",63.150002,63.439999,62.639999,63.290001,282600,60.503899
"2015-04-27",63.380001,63.59,62.549999,62.790001,491400,60.292648
"2015-04-28",62.720001,63.049999,62.450001,62.779999,254100,60.283043
"2015-04-29",62.639999,62.740002,62.119999,62.549999,256600,60.062195
"2015-04-30",62.150002,62.790001,62,62.07,407400,59.601288
"2015-05-01",64.25,64.93,63.009998,64.050003,1366000,61.502541
"2015-05-04",64.339996,64.980003,63.900002,63.959999,922000,61.416111
"2015-05-05",63.740002,64.080002,62.869999,63,659200,60.494297
"2015-05-06",63.099998,63.34,62.610001,63.099998,640900,60.590321
"2015-05-07",63.02,63.130001,62.720001,63,699400,60.494297
"2015-05-08",63.700001,63.700001,62.950001,63.16,522600,60.647926
"2015-05-11",62.970001,63.209999,62.900002,63.060001,501400,60.55191
"2015-05-12",62.880001,63.709999,62.380001,63.509998,435800,60.984013
"2015-05-13",63.970001,64.5,63.970001,64.330002,601300,61.771404
"2015-05-14",64.629997,65.419998,64.629997,65.209999,712700,62.616394
"2015-05-15",65.209999,65.389999,64.879997,65.199997,213600,62.606781
"2015-05-18",65.120003,65.839996,64.959999,65.660004,220100,63.0485
"2015-05-19",65.730003,66.309998,65.629997,66.089996,314400,63.46138
"2015-05-20",66.089996,66.150002,65.290001,65.459999,170600,62.856457
"2015-05-21",65.239998,65.260002,64.550003,64.919998,425200,62.337925
"2015-05-22",64.75,65.010002,64.330002,64.5,313600,61.934631
"2015-05-26",64.480003,64.639999,63.68,63.970001,286600,61.425716
"2015-05-27",64.019997,64.550003,63.84,64.480003,258800,61.915432
"2015-05-28",64.400002,64.699997,64.080002,64.489998,274100,61.925034
"2015-05-29",64.639999,64.849998,63.650002,63.77,227400,61.233673
"2015-06-01",64.019997,64.269997,63.310001,63.900002,406200,61.358509
"2015-06-02",63.830002,64.629997,63.470001,63.950001,302500,61.406509
"2015-06-03",64.25,64.559998,63.950001,64.139999,532800,61.588955
"2015-06-04",63.75,64.25,63.529999,63.919998,189400,61.377705
"2015-06-05",63.77,64.32,63.450001,64.279999,345400,61.723381
"2015-06-08",64.239998,64.529999,63.560001,63.75,226400,61.214462
"2015-06-09",63.75,64.330002,63.580002,64.150002,367100,61.59856
"2015-06-10",64.300003,64.559998,64.050003,64.239998,264900,61.684978
"2015-06-11",64.230003,64.82,64.209999,64.779999,224700,62.203499
"2015-06-12",64.5,64.75,64.139999,64.580002,247700,62.011452
"2015-06-15",64.059998,64.279999,63.619999,64.269997,329600,61.713779
"2015-06-16",64.309998,65.779999,64,64.900002,579000,62.318737
"2015-06-17",64.879997,65,64.129997,64.809998,306600,62.232304
"2015-06-18",64.949997,65.339996,64.489998,65.269997,210400,62.674007
"2015-06-19",65.300003,65.830002,65.040001,65.290001,462200,62.693214
"2015-06-22",65.639999,65.639999,65.139999,65.5,236100,62.894859
"2015-06-23",65.57,65.629997,64.809998,65.18,381000,62.587601
"2015-06-24",65.120003,65.309998,64.370003,64.449997,189100,61.88662
"2015-06-25",64.68,65.089996,64.029999,64.279999,325000,61.723381
"2015-06-26",64.400002,64.629997,64.059998,64.480003,301500,61.915432
"2015-06-29",64.150002,64.559998,63.68,63.740002,262500,61.204865
"2015-06-30",64.07,64.300003,63.619999,63.77,478200,61.233673
"2015-07-01",64.139999,64.379997,63.740002,63.849998,434100,61.310486
"2015-07-02",64.120003,64.260002,63.560001,63.790001,198500,61.252884
"2015-07-06",63.450001,63.990002,63.169998,63.84,229700,61.300888
"2015-07-07",63.740002,64.360001,63.439999,64.300003,262700,61.742588
"2015-07-08",63.889999,64.389999,63.25,63.439999,350800,60.916798
"2015-07-09",63.889999,64.040001,63.25,63.41,360600,60.887989
"2015-07-10",63.959999,64.449997,63.509998,63.68,173500,61.147243
"2015-07-13",63.779999,64.349998,63.779999,64.260002,262000,61.704189
"2015-07-14",64.019997,64.290001,63.790001,63.939999,304000,61.396908
"2015-07-15",63.880001,64.279999,63.630001,63.939999,269400,61.396908
"2015-07-16",64.220001,64.550003,64.120003,64.300003,140800,61.742588
"2015-07-17",64.150002,64.330002,63.759998,63.93,216300,61.38731
"2015-07-20",63.82,64.080002,63.610001,63.959999,147700,61.416111
"2015-07-21",63.759998,64.089996,62.950001,63.080002,213600,60.571117
"2015-07-22",62.970001,63.490002,62.950001,63,316000,60.494297
"2015-07-23",63.16,63.259998,62.41,62.459999,156600,59.975769
"2015-07-24",62.34,62.610001,61.5,61.75,304100,59.29401
"2015-07-27",61.220001,61.57,60.73,61.380001,254900,59.207199
"2015-07-28",61.619999,62.349998,61.27,62.299999,243700,60.094631
"2015-07-29",64,67.389999,63.509998,66.349998,758600,64.001259
"2015-07-30",66.32,67.93,66.050003,67.5,1281300,65.110558
"2015-07-31",67.790001,68.709999,67.5,67.790001,623300,65.390289
"2015-08-03",67.779999,68.059998,66.540001,67.279999,364200,64.898338
"2015-08-04",67.400002,68.190002,67.230003,67.93,325400,65.525337
"2015-08-05",68.150002,69.339996,68.099998,68.809998,249400,66.374176
"2015-08-06",68.779999,69.110001,68.190002,68.370003,243300,65.94976
"2015-08-07",68.279999,68.900002,67.93,68.790001,240600,66.354904
"2015-08-10",69.010002,70.099998,68.839996,69.919998,181500,67.444901
"2015-08-11",69.400002,69.949997,68.599998,69.18,385900,66.731087
"2015-08-12",68.629997,69.620003,67.93,68.779999,212200,66.345238
"2015-08-13",68.510002,69.580002,68.300003,69.029999,241900,66.586388
"2015-08-14",69,69.93,68.849998,69.870003,175700,67.39666
"2015-08-17",69.620003,70.339996,69.150002,70.089996,161600,67.608871
"2015-08-18",69.800003,70.279999,69.459999,69.830002,148000,67.358078
"2015-08-19",69.519997,69.720001,68.550003,69.110001,206200,66.663567
"2015-08-20",68.639999,69.089996,68,68.07,236500,65.660385
"2015-08-21",67.120003,68.120003,67.040001,67.610001,443600,65.216667
"2015-08-24",64.800003,67.620003,64.660004,66.150002,508300,63.808353
"2015-08-25",67.879997,68.089996,65.470001,65.540001,317800,63.21994
"2015-08-26",66.699997,66.769997,65.410004,66.709999,301200,64.348526
"2015-08-27",67.209999,67.760002,66.43,67.660004,280700,65.2649
"2015-08-28",67.220001,67.760002,66.940002,67.709999,186200,65.313118
"2015-08-31",67.389999,67.790001,67.080002,67.360001,242700,64.975502
"2015-09-01",66.07,66.919998,65.779999,65.800003,357000,63.470745
"2015-09-02",66.550003,66.949997,65.5,66.480003,248300,64.126671
"2015-09-03",66.699997,67.459999,66.639999,67.379997,159400,64.994812
"2015-09-04",66.699997,67.459999,66.559998,67.269997,244300,64.888687
"2015-09-08",67.75,68.360001,67.279999,68.019997,370200,65.612152
"2015-09-09",68.019997,68.620003,67.110001,67.779999,432300,65.380638
"2015-09-10",67.209999,67.970001,66.580002,66.910004,366100,64.541466
"2015-09-11",66.68,67.419998,66.080002,67.400002,266700,65.014091
"2015-09-14",67.279999,67.279999,66.709999,66.720001,175300,64.358177
"2015-09-15",67.540001,68.440002,67.370003,68.410004,523700,65.988358
"2015-09-16",68.309998,69.160004,67.879997,69.040001,213500,66.596031
"2015-09-17",69.150002,69.379997,68.360001,68.419998,178500,65.997986
"2015-09-18",67.790001,68.290001,67,67.150002,444200,64.772949
"2015-09-21",67.480003,68.339996,67.139999,67.629997,193600,65.235954
"2015-09-22",66.879997,67.419998,66.660004,66.739998,171700,64.377457
"2015-09-23",66.919998,67.059998,65.839996,66.68,359100,64.319595
"2015-09-24",66.269997,66.269997,65.160004,65.599998,275300,63.277809
"2015-09-25",65.690002,65.690002,64.839996,65.529999,412100,63.210293
"2015-09-28",65.139999,65.25,64.099998,64.150002,218700,61.879147
"2015-09-29",64.139999,65,63.619999,64.940002,445500,62.641186
"2015-09-30",65.510002,66.279999,65.309998,65.959999,311400,63.62508
"2015-10-01",65.949997,67.43,65.790001,67.239998,569600,64.859764
"2015-10-02",66.639999,68,66.160004,67.980003,216000,65.573563
"2015-10-05",68.43,69.029999,68.050003,68.410004,271600,65.988358
"2015-10-06",68.529999,68.669998,67.610001,67.68,306300,65.28418
"2015-10-07",68.010002,68.730003,67.720001,68.68,222100,66.248787
"2015-10-08",68.760002,69.769997,68.5,69.629997,185000,67.165161
"2015-10-09",69.690002,70.699997,69.690002,70.260002,252100,67.77285
"2015-10-12",70.309998,70.639999,69.919998,70.57,235100,68.071884
"2015-10-13",70.400002,70.879997,69.93,70.160004,257900,67.676399
"2015-10-14",70.110001,70.720001,69.57,69.669998,131000,67.203735
"2015-10-15",69.879997,70.110001,68.949997,69.690002,236300,67.223038
"2015-10-16",69.690002,69.910004,69.260002,69.839996,212500,67.367706
"2015-10-19",69.610001,70.040001,69.540001,69.989998,186200,67.512405
"2015-10-20",69.910004,70.82,69.910004,70.489998,217300,67.994713
"2015-10-21",70.529999,70.800003,69.800003,69.870003,194700,67.39666
"2015-10-22",70.279999,71.360001,70.209999,71.290001,268300,68.766388
"2015-10-23",71.959999,72.169998,71.059998,71.400002,256900,68.872498
"2015-10-26",71.300003,71.68,71.050003,71.300003,244900,68.776054
"2015-10-27",71.25,71.32,69.629997,70.949997,281900,68.438431
"2015-10-28",71.059998,71.849998,70.720001,71.849998,319200,69.306557
"2015-10-29",70.230003,72.349998,70.230003,72.339996,387400,69.779221
"2015-10-30",71.620003,75.25,71.620003,73.559998,948300,70.956039
"2015-11-02",74.769997,75.879997,73.839996,75.720001,432400,73.338676
"2015-11-03",75.779999,75.959999,74.669998,74.760002,292000,72.408882
"2015-11-04",74.75,74.75,73.050003,73.230003,423800,70.926964
"2015-11-05",73.330002,73.790001,72.989998,73.449997,225300,71.14006
"2015-11-06",73.480003,73.480003,72.68,73.260002,288400,70.956047
"2015-11-09",73.050003,73.419998,71.82,72.449997,261900,70.171516
"2015-11-10",72.419998,73.040001,71.879997,73.040001,293800,70.742958
"2015-11-11",73.32,73.620003,72.910004,73.059998,153800,70.762321
"2015-11-12",72.5,72.910004,70.769997,70.800003,304800,68.573402
"2015-11-13",70.68,71.699997,70.57,71.519997,539600,69.270752
"2015-11-16",71.870003,72.18,71.150002,72.099998,196700,69.83252
"2015-11-17",72.290001,72.879997,71.790001,71.970001,172600,69.706604
"2015-11-18",72.220001,73.510002,71.919998,73.43,181300,71.120689
"2015-11-19",73.32,73.779999,72.75,73.68,138600,71.362831
"2015-11-20",73.940002,74.550003,73.720001,74.290001,157300,71.953651
"2015-11-23",74.239998,74.519997,73.699997,73.849998,239000,71.527481
"2015-11-24",73.410004,74.720001,73.139999,74.279999,226100,71.943954
"2015-11-25",74.43,75.559998,74.220001,74.870003,265300,72.515404
"2015-11-27",74.800003,75.360001,74.300003,75.010002,65200,72.651009
"2015-11-30",75.169998,75.489998,74.07,74.480003,278700,72.137672
"2015-12-01",74.699997,75.279999,74.57,74.970001,125300,72.612274
"2015-12-02",74.800003,75.269997,73.730003,73.93,156900,71.604958
"2015-12-03",74.309998,74.589996,72.919998,73.459999,182700,71.14975
"2015-12-04",73.5,74.519997,73.5,74.349998,89500,72.011749
"2015-12-07",74.029999,74.599998,73.629997,74.220001,242800,71.885841
"2015-12-08",73.5,74.059998,73.129997,73.599998,225000,71.285347
"2015-12-09",73.269997,74.440002,72.849998,73.080002,235500,70.781708
"2015-12-10",73.239998,73.699997,72.730003,73.43,175500,71.120689
"2015-12-11",72.720001,73.559998,72.239998,72.860001,169300,70.568619
"2015-12-14",72.769997,73.300003,72.400002,72.550003,246800,70.268372
"2015-12-15",73,73.410004,72.470001,73.059998,185300,70.762321
"2015-12-16",73.360001,73.809998,72.589996,73.449997,191200,71.14006
"2015-12-17",73.580002,73.949997,72.260002,72.260002,160400,69.987495
"2015-12-18",72.260002,72.260002,71.089996,71.110001,809900,68.873665
"2015-12-21",71.480003,71.980003,71.209999,71.660004,224100,69.406364
"2015-12-22",71.839996,72.510002,71.400002,72.309998,122300,70.035904
"2015-12-23",72.839996,73.519997,72.449997,73.459999,216500,71.14975
"2015-12-24",73.230003,73.639999,72.760002,73.300003,78800,70.994781
"2015-12-28",72.980003,73.940002,72.910004,73.709999,137500,71.391891
"2015-12-29",74,74.470001,73.599998,74.040001,80800,71.71151
"2015-12-30",73.900002,74.32,73,73.620003,100800,71.304718
"2015-12-31",73.269997,73.940002,72.620003,72.650002,157800,70.365219
"2016-01-04",72,72.209999,71.230003,72.080002,288300,69.813156
"2016-01-05",72.080002,72.080002,71.010002,71.669998,323800,69.416046
"2016-01-06",70.699997,71.589996,70.360001,71.18,389900,68.941452
"2016-01-07",70.019997,70.709999,69.599998,69.760002,321200,67.566109
"2016-01-08",69.959999,70.629997,69.669998,69.879997,565000,67.682327
"2016-01-11",69.93,70.360001,69.07,69.82,312000,67.624214
"2016-01-12",70.309998,70.919998,69.330002,69.839996,286700,67.643585
"2016-01-13",70.129997,70.830002,68.889999,68.910004,379900,66.742844
"2016-01-14",69.099998,69.18,68.129997,68.75,439100,66.587883
"2016-01-15",67.519997,68.260002,67,68.07,344200,65.92926
"2016-01-19",68.849998,68.849998,67.300003,68.120003,221800,65.977692
"2016-01-20",67.349998,68.410004,66.330002,67.830002,252300,65.696808
"2016-01-21",67.900002,68.339996,66.690002,66.699997,323100,64.602348
"2016-01-22",67.480003,68.32,67.190002,68.25,252600,66.103592
"2016-01-25",67.669998,67.760002,66.639999,66.860001,330300,65.043221
"2016-01-26",67.639999,70.620003,67.57,70.489998,582200,68.574577
"2016-01-27",70.239998,71.650002,69.720001,70.25,491100,68.341095
"2016-01-28",70.82,71.32,70.410004,70.669998,420800,68.749687
"2016-01-29",70.860001,72.910004,70.860001,72.900002,796100,70.91909
"2016-02-01",72.290001,72.690002,71.589996,72.309998,284400,70.345123
"2016-02-02",71.480003,71.790001,70.800003,71.32,325700,69.382034
"2016-02-03",71.809998,73.169998,70.580002,73.150002,433000,71.162292
"2016-02-04",73.010002,73.720001,71.879997,72.239998,365600,70.277023
"2016-02-05",72.980003,74.660004,70.480003,71.120003,281400,69.187469
"2016-02-08",70.559998,73.059998,69.879997,73.029999,521700,71.045563
"2016-02-09",72.489998,75.269997,72.300003,74.410004,581100,72.388069
"2016-02-10",74.68,75.529999,73.449997,74.190002,362700,72.174049
"2016-02-11",73.190002,75.019997,73.190002,74.32,526900,72.300507
"2016-02-12",74.82,75.650002,73.699997,75.300003,306400,73.253883
"2016-02-16",76.050003,76.190002,73.470001,73.949997,386700,71.940552
"2016-02-17",74.25,74.669998,73.169998,73.370003,374100,71.376312
"2016-02-18",73.5,73.75,72.980003,73.300003,260400,71.308228
"2016-02-19",73.300003,73.760002,71.559998,72.879997,700700,70.899628
"2016-02-22",73.470001,73.879997,72.440002,72.800003,387400,70.821808
"2016-02-23",72.849998,73.019997,72.050003,72.870003,264900,70.889908
"2016-02-24",72.419998,74.120003,72.220001,73.910004,220200,71.901649
"2016-02-25",74,74.389999,73.480003,74.339996,207100,72.319962
"2016-02-26",74.779999,74.949997,73.309998,73.330002,159400,71.33741
"2016-02-29",73.5,74.379997,72.980003,73.709999,211600,71.707077
"2016-03-01",74.040001,75.080002,73.75,74.5,233000,72.475609
"2016-03-02",74.389999,74.830002,73.82,74.410004,154800,72.388069
"2016-03-03",74.349998,75.25,73.809998,75.199997,354300,73.156593
"2016-03-04",75.199997,76.099998,75.139999,76,299600,73.934875
"2016-03-07",75.870003,76.419998,75.089996,75.720001,216100,73.66246
"2016-03-08",75.720001,76.129997,75.120003,75.790001,236800,73.730553
"2016-03-09",75.949997,76.529999,75.099998,75.849998,313200,73.78894
"2016-03-10",76.279999,76.809998,75.129997,75.370003,266300,73.321976
"2016-03-11",75.510002,76.199997,75.510002,75.779999,239200,73.72084
"2016-03-14",75.779999,76.199997,74.879997,75.239998,286000,73.195511
"2016-03-15",74.779999,76.5,74.040001,76.160004,365100,74.090508
"2016-03-16",75.779999,76.830002,75.529999,76.550003,188200,74.46991
"2016-03-17",76.839996,77.760002,76.510002,77.260002,304300,75.160614
"2016-03-18",76.949997,77.580002,76.169998,76.889999,611700,74.800659
"2016-03-21",76.989998,77.989998,76.82,77.379997,212000,75.277359
"2016-03-22",77,78.419998,76.639999,78.07,241500,75.948608
"2016-03-23",77.959999,78.889999,76.989998,78.139999,253200,76.016716
"2016-03-24",77.93,77.989998,76.860001,77.389999,207600,75.287079
"2016-03-28",77.68,78.370003,77.449997,78.309998,320300,76.182083
"2016-03-29",77.940002,78.709999,77.379997,78.510002,624100,76.376663
"2016-03-30",78.779999,79.040001,78.059998,78.730003,294200,76.590683
"2016-03-31",78.830002,79.019997,78.199997,78.410004,373200,76.279366
"2016-04-01",78.029999,79.160004,77.82,79.089996,193900,76.940895
"2016-04-04",79.230003,79.669998,78.709999,78.910004,177000,76.765785
"2016-04-05",78.32,78.779999,77.5,77.739998,218700,75.627579
"2016-04-06",77.739998,78.190002,76.660004,77.980003,250300,75.861061
"2016-04-07",77.639999,77.639999,76.860001,77.349998,219100,75.248177
"2016-04-08",77.849998,77.849998,77.040001,77.360001,178600,75.257896
"2016-04-11",77.970001,78.169998,77.160004,77.360001,171700,75.257896
"2016-04-12",77.470001,77.699997,76.970001,77.589996,201000,75.481651
"2016-04-13",78.029999,78.230003,76.870003,78.190002,172400,76.065353
"2016-04-14",78.360001,78.57,77.980003,78.449997,211900,76.318291
"2016-04-15",78.419998,79.300003,78.160004,79.25,246900,77.096535
"2016-04-18",79,79.660004,78.93,79.629997,221100,77.466209
"2016-04-19",79.900002,80.32,79.260002,79.449997,304700,77.291107
"2016-04-20",79.720001,79.93,79.160004,79.769997,188500,77.602409
"2016-04-21",79.610001,80.029999,78.43,78.580002,218600,76.444756
"2016-04-22",78.620003,79.790001,78.620003,79.68,238600,77.51487
"2016-04-25",78.940002,79.419998,78.75,79.019997,266800,77.163322
"2016-04-26",79.32,80,78.739998,79.93,234400,78.051933
"2016-04-27",79.889999,80.360001,79.540001,79.959999,303200,78.081238
"2016-04-28",79.75,80.32,79,79.290001,575500,77.426971
"2016-04-29",77.220001,77.959999,75.709999,76,777800,74.214279
"2016-05-02",75.779999,77.330002,75.650002,76.849998,478800,75.044296
"2016-05-03",76.389999,76.5,75.599998,75.75,836200,73.970154
"2016-05-04",75.25,75.900002,75.010002,75.559998,574200,73.784622
"2016-05-05",75.540001,76.480003,75.120003,76.059998,307100,74.272865
"2016-05-06",76,76.550003,75.720001,76.279999,222400,74.487701
"2016-05-09",76.169998,76.82,75.660004,76.550003,365700,74.75135
"2016-05-10",76.730003,77.300003,76.309998,77.080002,196600,75.268906
"2016-05-11",77.07,77.669998,76.68,76.830002,251800,75.024773
"2016-05-12",77.32,77.980003,77.080002,77.629997,219900,75.805977
"2016-05-13",77.339996,77.339996,76.510002,76.970001,202900,75.161491
"2016-05-16",77.080002,77.790001,76.629997,77.400002,169500,75.58139
"2016-05-17",77.260002,77.419998,75.239998,75.400002,446800,73.628365
"2016-05-18",75.120003,76.089996,74.830002,75.25,337400,73.481903
"2016-05-19",74.760002,75.480003,74.160004,74.849998,253100,73.091293
"2016-05-20",75.309998,75.779999,74.970001,75.330002,301700,73.56002
"2016-05-23",75.489998,75.629997,74.730003,74.790001,206200,73.032707
"2016-05-24",75.239998,76.559998,75.150002,76.379997,257900,74.585342
"2016-05-25",76.349998,76.860001,76.080002,76.349998,173400,74.556046
"2016-05-26",76.519997,76.760002,75.959999,76.43,140300,74.634178
"2016-05-27",76.519997,77.190002,76.18,77.139999,246300,75.327499
"2016-05-31",77.220001,77.540001,76.830002,77.260002,267700,75.444679
"2016-06-01",76.860001,77.209999,76.07,77.209999,194600,75.395844
"2016-06-02",77.150002,77.349998,76.790001,77.349998,222600,75.532562
"2016-06-03",77.57,77.790001,76.940002,77.199997,145100,75.386086
"2016-06-06",77.309998,78.029999,76.790001,77.089996,184800,75.278656
"2016-06-07",77.029999,77.910004,77.029999,77.489998,170000,75.669258
"2016-06-08",77.589996,78.550003,77.120003,77.720001,128100,75.893867
"2016-06-09",77.400002,77.870003,77.18,77.790001,123400,75.962227
"2016-06-10",77.400002,78.199997,77.400002,78.199997,274700,76.362587
"2016-06-13",77.75,78.080002,76.620003,76.779999,261800,74.97596
"2016-06-14",76.830002,76.959999,76.099998,76.440002,246100,74.643936
"2016-06-15",76.5,76.959999,76.059998,76.32,213300,74.526756
"2016-06-16",76.059998,76.940002,75.660004,76.5,285400,74.70253
"2016-06-17",76.220001,76.599998,75.790001,76.349998,351300,74.556046
"2016-06-20",77.18,77.980003,77.18,77.620003,140800,75.796211
"2016-06-21",77.620003,78.220001,77.470001,77.68,213400,75.854797
"2016-06-22",77.910004,78.309998,77.620003,78.309998,162800,76.469994
"2016-06-23",79.080002,80.139999,79.080002,80.139999,368500,78.257004
"2016-06-24",77.199997,78.099998,76.540001,76.75,461600,74.946655
"2016-06-27",75.93,75.970001,74.269997,74.599998,327800,72.847168
"2016-06-28",74.900002,75.690002,74.529999,75.690002,216300,73.91156
"2016-06-29",76.550003,76.949997,75.949997,76.720001,198000,74.917366
"2016-06-30",76.959999,79.150002,76.760002,79.129997,395900,77.270721
"2016-07-01",78.989998,79.730003,78.5,79.169998,169300,77.309799
"2016-07-05",78.849998,79.099998,77.800003,78.720001,207000,76.870369
"2016-07-06",78.660004,78.82,77.970001,78.739998,192300,76.8899
"2016-07-07",78.889999,79.330002,78.279999,78.489998,155400,76.645775
"2016-07-08",79.269997,79.849998,79.099998,79.790001,132300,77.91523
"2016-07-11",80.080002,80.470001,79.879997,80.199997,144500,78.315582
"2016-07-12",80.75,81.169998,80.360001,80.410004,143800,78.52066
"2016-07-13",80.769997,80.919998,80.080002,80.230003,188000,78.344887
"2016-07-14",80.800003,81,79.860001,80.190002,134100,78.305832
"2016-07-15",80.110001,80.629997,79.919998,79.919998,164500,78.042175
"2016-07-18",79.919998,80.540001,79.580002,79.910004,93400,78.03241
"2016-07-19",79.860001,80.089996,79.220001,79.620003,87100,77.749222
"2016-07-20",79.559998,80.720001,79.559998,80.300003,191200,78.413254
"2016-07-21",80.059998,80.57,79.730003,79.940002,132500,78.061699
"2016-07-22",79.919998,80.790001,79.910004,80.459999,140900,78.569481
"2016-07-25",80.040001,80.400002,79.800003,79.949997,235000,78.36364
"2016-07-26",79.879997,80.720001,79.879997,80.300003,185200,78.706703
"2016-07-27",80.739998,80.739998,79.279999,79.720001,321300,78.138214
"2016-07-28",79.709999,79.989998,78.970001,79.379997,239100,77.804955
"2016-07-29",79.919998,81.5,77.110001,78.18,730500,76.628769
"2016-08-01",78.139999,78.139999,77,77.339996,302600,75.805428
"2016-08-02",77.230003,77.230003,75.940002,76.610001,406600,75.089912
"2016-08-03",76.709999,76.970001,76.25,76.620003,213500,75.099724
"2016-08-04",76.739998,77.489998,76.540001,76.779999,171800,75.256546
"2016-08-05",77.300003,77.32,76.449997,76.589996,217700,75.07032
"2016-08-08",76.709999,77.589996,75.989998,76.169998,185000,74.658646
"2016-08-09",76.260002,76.599998,75.720001,75.980003,153000,74.472435
"2016-08-10",76.07,76.330002,75.839996,76.220001,133000,74.707657
"2016-08-11",76.580002,76.860001,75.870003,76.099998,185000,74.590034
"2016-08-12",75.989998,76.099998,75.349998,75.580002,99200,74.08036
"2016-08-15",75.870003,76.080002,75.480003,75.5,103000,74.001945
"2016-08-16",75.589996,75.639999,75.080002,75.160004,186000,73.668694
"2016-08-17",75.220001,75.82,75.010002,75.790001,179400,74.286201
"2016-08-18",75.800003,76.830002,75.620003,76.830002,220900,75.30555
"2016-08-19",76.459999,76.989998,76.239998,76.779999,209400,75.256546
"2016-08-22",76.769997,77.220001,76.400002,77.099998,144600,75.570198
"2016-08-23",77.410004,77.93,77.269997,77.339996,312400,75.805428
"2016-08-24",77.220001,77.739998,77.220001,77.580002,185900,76.04068
"2016-08-25",77.43,78.540001,77.43,78.07,219500,76.520943
"2016-08-26",78.050003,79.07,78.050003,78.470001,376200,76.913017
"2016-08-29",78.5,79.059998,78.5,78.779999,163400,77.216873
"2016-08-30",78.779999,79.120003,78.589996,78.690002,198900,77.128654
"2016-08-31",78.540001,78.790001,77.959999,77.980003,279700,76.432739
"2016-09-01",78.120003,78.300003,77.489998,77.970001,209800,76.422935
"2016-09-02",78.470001,79.18,78.099998,79.160004,253000,77.589325
"2016-09-06",79.440002,79.809998,78.919998,79.459999,237300,77.883377
"2016-09-07",79.18,80.370003,79.18,80.290001,316100,78.696907
"2016-09-08",80.519997,80.550003,79.169998,79.209999,281300,77.638329
"2016-09-09",78.900002,78.900002,77.43,77.459999,327000,75.92305
"2016-09-12",77,78.559998,77,78.510002,182000,76.952217
"2016-09-13",78.080002,78.370003,77.139999,77.540001,246800,76.001472
"2016-09-14",77.489998,77.760002,77.059998,77.370003,150000,75.834846
"2016-09-15",77.300003,77.989998,77.260002,77.900002,162600,76.354332
"2016-09-16",77.360001,78.010002,77.360001,77.599998,310300,76.06028
"2016-09-19",77.900002,78.800003,77.889999,78.610001,233200,77.05024
"2016-09-20",79.099998,79.410004,78.699997,78.720001,281000,77.158058
"2016-09-21",78.809998,78.809998,77.839996,78.419998,413200,76.863998
"2016-09-22",79.059998,79.510002,78.360001,79.459999,281200,77.883377
"2016-09-23",79.169998,79.489998,78.610001,78.790001,157100,77.226677
"2016-09-26",78.690002,78.970001,78.029999,78.059998,289000,76.511154
"2016-09-27",77.360001,78.139999,77.360001,77.739998,631400,76.197502
"2016-09-28",78.360001,78.650002,77.610001,78.610001,211900,77.05024
"2016-09-29",78.279999,78.57,77.080002,77.209999,175600,75.678017
"2016-09-30",77.360001,77.919998,76.970001,77.410004,407300,75.874046
"2016-10-03",77.07,77.440002,76.599998,77.360001,301500,75.825043
"2016-10-04",77.239998,77.68,76,76.099998,242700,74.590034
"2016-10-05",76.459999,76.589996,75.93,76.110001,189300,74.599846
"2016-10-06",76.099998,76.669998,75.760002,76.639999,153500,75.119331
"2016-10-07",76.660004,76.669998,75.190002,75.639999,279500,74.139168
"2016-10-10",76.040001,76.519997,75.68,75.949997,116400,74.443016
"2016-10-11",75.620003,75.720001,74.550003,75.07,152700,73.580475
"2016-10-12",75.559998,75.809998,75.110001,75.660004,140900,74.158775
"2016-10-13",74.779999,76.199997,74.580002,75.589996,211200,74.090157
"2016-10-14",75.620003,76.32,75.57,76.029999,176800,74.521431
"2016-10-17",76.019997,76.470001,76.010002,76.199997,80900,74.688057
"2016-10-18",76.779999,77,75.980003,76.389999,112900,74.874283
"2016-10-19",76.279999,76.779999,76.040001,76.480003,97900,74.962502
"2016-10-20",76.120003,76.800003,75.389999,75.970001,219300,74.462624
"2016-10-21",76.230003,77.410004,75.870003,77.160004,184300,75.629021
"2016-10-24",78.099998,78.099998,76.550003,77,150800,75.472183
"2016-10-25",77,77.139999,76.190002,77,187000,75.472183
"2016-10-26",76.82,77.190002,76.199997,76.269997,178100,74.756668
"2016-10-27",76.389999,76.389999,75.610001,76.279999,174600,74.766464
"2016-10-28",75.110001,75.989998,72.580002,73.019997,464700,71.571152
"2016-10-31",72.93,73.889999,70.879997,71.440002,644800,70.330719
"2016-11-01",71.809998,71.849998,70.32,70.620003,345000,69.52346
"2016-11-02",70.580002,71.540001,70.43,70.919998,267400,69.818794
"2016-11-03",70.849998,71.459999,70.639999,70.870003,218400,69.769577
"2016-11-04",71.110001,71.900002,70.980003,71.410004,235500,70.301193
"2016-11-07",72.57,74.349998,72.290001,74.330002,458400,73.17585
"2016-11-08",74.279999,76.07,74.050003,75.739998,506700,74.56395
"2016-11-09",74.910004,76.07,74.529999,75.110001,313100,73.943733
"2016-11-10",75.599998,75.599998,71.269997,71.43,636100,70.320877
"2016-11-11",71.360001,72.129997,70.75,71.849998,316900,70.734344
"2016-11-14",72.290001,73.540001,72.290001,73.510002,308000,72.368576
"2016-11-15",73.480003,73.800003,72.989998,73.379997,190100,72.240593
"2016-11-16",73.629997,73.720001,72.910004,73.57,205000,72.42765
"2016-11-17",73.580002,74.260002,72.800003,73.580002,207500,72.437492
"2016-11-18",73.419998,73.760002,72.870003,73.650002,229800,72.506401
"2016-11-21",73.699997,74.260002,73.339996,74.239998,182500,73.087234
"2016-11-22",74.599998,75.650002,73.959999,75.489998,452400,74.317825
"2016-11-23",75.169998,76.25,75.169998,76.050003,193800,74.869148
"2016-11-25",76.040001,76.660004,75.75,76.07,123600,74.888824
"2016-11-28",76.099998,77.279999,76.019997,76.470001,346700,75.282623
"2016-11-29",76.550003,76.860001,74.800003,75.68,327500,74.504883
"2016-11-30",76.019997,76.050003,73.169998,73.18,322800,72.043709
"2016-12-01",73.199997,74.339996,72.459999,74.080002,467500,72.929733
"2016-12-02",74.050003,74.550003,73.599998,74.349998,388100,73.195534
"2016-12-05",74.839996,75.129997,73.160004,73.379997,351000,72.240593
"2016-12-06",73.309998,73.860001,73.099998,73.800003,356700,72.654076
"2016-12-07",71.839996,73.919998,71.839996,73.480003,579300,72.33905
"2016-12-08",73.489998,74.589996,73.489998,74.199997,408300,73.047859
"2016-12-09",74.610001,75.18,74.279999,74.75,389200,73.589325
"2016-12-12",74.849998,75.150002,74.150002,74.610001,276800,73.4515
"2016-12-13",74.900002,75.599998,74.309998,74.370003,270700,73.215225
"2016-12-14",74.57,74.970001,72.959999,73.050003,343900,71.915726
"2016-12-15",73.32,73.720001,72.830002,72.959999,346100,71.827118
"2016-12-16",73.220001,73.400002,72.730003,72.93,561000,71.797585
"2016-12-19",73.190002,74.029999,72.779999,73.800003,280500,72.654076
"2016-12-20",73.650002,74.059998,73.400002,73.980003,269400,72.831291
"2016-12-21",73.870003,74.160004,73.339996,73.360001,280600,72.220909
"2016-12-22",73.5,73.5,72.580002,73.019997,291800,71.886185
"2016-12-23",72.860001,73.93,72.860001,73.610001,161500,72.467026
"2016-12-27",73.809998,74.57,73.449997,74.169998,201800,73.018326
"2016-12-28",74.050003,74.690002,73.57,73.720001,191000,72.575317
"2016-12-29",73.639999,74.120003,73.32,73.690002,139400,72.545776
"2016-12-30",73.730003,74.019997,73.25,73.449997,240200,72.309502
"2017-01-03",74.260002,74.260002,72.349998,73.019997,336300,71.886185
"2017-01-04",72.919998,74.720001,72.919998,74.230003,418800,73.0774
"2017-01-05",73.720001,74.410004,73.230003,73.470001,356400,72.329208
"2017-01-06",73.529999,73.970001,73.07,73.5,282800,72.358734
"2017-01-09",73.5,74.410004,73.080002,73.68,374100,72.535942
"2017-01-10",73.330002,73.589996,72.800003,72.82,161500,71.689293
"2017-01-11",73.029999,73.360001,72.779999,73.040001,193100,71.905876
"2017-01-12",73.150002,73.760002,72.360001,73.330002,184300,72.191383
"2017-01-13",73.309998,73.82,73.029999,73.5,188900,72.358734
"2017-01-17",72.879997,73.830002,72.860001,73.339996,270200,72.20121
"2017-01-18",73.419998,73.800003,73.019997,73.480003,261000,72.33905
"2017-01-19",73.639999,73.690002,72.459999,72.730003,374700,71.600693
"2017-01-20",72.370003,72.510002,71.550003,71.639999,347300,70.527611
"2017-01-23",71.879997,72.529999,71.440002,72.449997,384600,71.325035
"2017-01-24",72.790001,73.849998,72.790001,73.540001,266000,72.398109
"2017-01-25",73.360001,73.940002,73.139999,73.43,267000,72.289825
"2017-01-26",73.389999,73.68,72.459999,73.32,275500,72.181526
"2017-01-27",73.400002,73.489998,72.910004,73.440002,320400,72.299667
"2017-01-30",73.07,73.440002,72.099998,72.739998,342000,71.923927
"2017-01-31",72.870003,73.309998,72.290001,72.970001,669400,72.151352
"2017-02-01",73.290001,74.050003,73.050003,73.940002,446900,73.110466
"2017-02-02",73.800003,73.800003,73.010002,73.330002,325700,72.507317
"2017-02-03",73.769997,74.129997,73.5,73.779999,278200,72.952263
"2017-02-06",73.529999,74.019997,73.120003,73.349998,254500,72.527077
"2017-02-07",73.339996,73.470001,72.650002,72.730003,360800,71.914047
"2017-02-08",72.620003,73.699997,72.440002,73.550003,397300,72.724846
"2017-02-09",73.370003,73.940002,73.160004,73.57,438000,72.744614
"2017-02-10",74.209999,76.199997,74.209999,74.790001,1160100,73.950928
"2017-02-13",75.220001,75.440002,74.360001,74.43,440000,73.594963
"2017-02-14",74.400002,74.400002,73.720001,73.830002,432000,73.001701
"2017-02-15",73.830002,73.919998,72.860001,73.199997,522800,72.378761
"2017-02-16",73.400002,74.230003,73.400002,74.199997,267000,73.367538
"2017-02-17",74.419998,74.550003,73.470001,73.900002,318600,73.070908
"2017-02-21",73.910004,74.660004,73.860001,74.589996,188600,73.753166
"2017-02-22",74.339996,74.809998,73.940002,74.260002,204500,73.426872
"2017-02-23",74.470001,74.559998,74.040001,74.120003,250600,73.288445
"2017-02-24",73.779999,74.489998,73.639999,74.360001,232400,73.525757
"2017-02-27",74.099998,75.019997,74.099998,74.480003,251800,73.644409
"2017-02-28",74.269997,74.650002,73.949997,74.510002,390200,73.674072
"2017-03-01",75.209999,76.169998,74.919998,76.059998,371000,75.206673
"2017-03-02",75.690002,76.07,75.459999,75.809998,327700,74.95948
"2017-03-03",75.529999,76.239998,75.529999,76.040001,298400,75.186905
"2017-03-06",75.470001,76.089996,75.470001,75.650002,302100,74.801285
"2017-03-07",75.540001,75.940002,75.18,75.470001,452700,74.623299
"2017-03-08",75.279999,76.059998,75.279999,75.940002,435600,75.08802
"2017-03-09",75.879997,76.480003,75.589996,75.849998,341200,74.999031
"2017-03-10",76.120003,77,75.800003,76.790001,435400,75.92849
"2017-03-13",76.800003,77,76.160004,76.75,221900,75.888931
"2017-03-14",75.629997,77.019997,75.349998,76.529999,265900,75.671402
"2017-03-15",76.919998,77.690002,76.830002,77.239998,225600,76.373436
"2017-03-16",77.300003,77.529999,76.690002,76.980003,186200,76.116356
"2017-03-17",76.900002,77.239998,76.589996,77.080002,405100,76.215233
"2017-03-20",77.169998,77.870003,76.75,77.839996,247300,76.966705
"2017-03-21",77.720001,77.830002,76.629997,76.769997,321300,75.908714
"2017-03-22",76.660004,77.080002,76.510002,76.849998,130100,75.987816
"2017-03-23",76.830002,77.739998,76.32,77.160004,136400,76.294342
"2017-03-24",77.190002,77.650002,76.330002,76.620003,154300,75.760399
"2017-03-27",75.809998,76.760002,75.809998,76.620003,256200,75.760399
"2017-03-28",76.410004,77.279999,76.330002,77.07,237700,76.205345
"2017-03-29",77.110001,77.110001,76.489998,77.040001,129300,76.17569
"2017-03-30",76.989998,77.379997,76.559998,76.860001,141800,75.997704
"2017-03-31",76.900002,77.279999,76.419998,76.989998,197200,76.126244
"2017-04-03",76.940002,77.459999,76.209999,76.449997,424900,75.5923
"2017-04-04",76.5,76.900002,75.949997,76.739998,318700,75.879051
"2017-04-05",77.040001,77.040001,76.019997,76.080002,372800,75.226456
"2017-04-06",75.940002,76.540001,75.489998,76.529999,293700,75.671402
"2017-04-07",76.489998,76.790001,76.019997,76.160004,214800,75.305557
"2017-04-10",75.940002,76.949997,75.919998,76.889999,242100,76.027367
"2017-04-11",76.599998,76.970001,76.419998,76.919998,263700,76.05703
"2017-04-12",76.889999,76.919998,76.040001,76.230003,236800,75.374779
"2017-04-13",76.050003,76.589996,75.760002,75.800003,164800,74.949608
"2017-04-17",76.029999,77.300003,75.879997,77.269997,220500,76.403107
"2017-04-18",77.040001,77.68,76.940002,77.57,196800,76.699738
"2017-04-19",77.870003,77.93,77.510002,77.550003,264800,76.679962
"2017-04-20",76.949997,78.32,76.949997,77.82,354300,76.94693
"2017-04-21",78.18,78.639999,77.099998,77.989998,185200,77.115028
"2017-04-24",78.970001,78.970001,77.720001,78.300003,250700,77.421555
"2017-04-25",78.349998,79.169998,77.620003,78.730003,290500,77.846725
"2017-04-26",78.919998,79.5,78.690002,79.339996,343000,78.449875
"2017-04-27",79.199997,79.599998,78.43,78.790001,237600,77.906052
"2017-04-28",80,80.529999,78.760002,80.300003,637700,79.399109
"2017-05-01",80.080002,80.599998,79.209999,79.730003,974600,79.150932
"2017-05-02",79.349998,80.68,78.889999,80.199997,450100,79.617508
"2017-05-03",79.889999,80.660004,79.5,80.449997,384500,79.865692
"2017-05-04",80.5,81.720001,80.5,81.389999,488800,80.798866
"2017-05-05",81.400002,82.169998,81.32,81.910004,413400,81.315094
"2017-05-08",82.080002,82.610001,81.720001,82.510002,374100,81.910736
"2017-05-09",82.610001,82.940002,82.110001,82.480003,302600,81.880959
"2017-05-10",82.25,83.040001,82.25,82.870003,308100,82.26812
"2017-05-11",82.489998,82.919998,81.82,82.529999,311500,81.930588
"2017-05-12",82.449997,82.82,82.239998,82.43,227600,81.831314
"2017-05-15",82.43,82.980003,82.190002,82.629997,211900,82.029861
"2017-05-16",82.580002,82.800003,82.230003,82.790001,210700,82.188705
"2017-05-17",82.790001,82.790001,81.849998,82.279999,266100,81.682404
"2017-05-18",82.25,82.400002,81.120003,82.139999,325700,81.543419
"2017-05-19",82.190002,82.510002,81.82,82.360001,331900,81.761826
"2017-05-22",82.25,82.980003,82.050003,82.839996,238500,82.238335
"2017-05-23",83,83.660004,82.970001,83.190002,204100,82.585793
"2017-05-24",83.190002,83.519997,82.800003,83.389999,187400,82.784348
"2017-05-25",83.620003,84.279999,83.260002,84.150002,203200,83.538818
"2017-05-26",84.150002,84.629997,84.059998,84.370003,158300,83.757225
"2017-05-30",84.129997,84.639999,83.800003,84.540001,224400,83.925995
"2017-05-31",85.18,85.18,84.419998,85.010002,285400,84.392586
"2017-06-01",85.25,86.309998,85.010002,86.260002,272600,85.633499
"2017-06-02",86.400002,86.730003,85.730003,86.330002,170700,85.702995
"2017-06-05",86.099998,87.089996,85.779999,85.849998,237600,85.226479
"2017-06-06",85.830002,85.830002,85.059998,85.480003,342600,84.859161
"2017-06-07",85.110001,85.919998,85.059998,85.690002,366600,85.067642
"2017-06-08",85.779999,85.989998,84.860001,85.25,185000,84.630836
"2017-06-09",85.300003,85.800003,85.18,85.650002,189800,85.027931
"2017-06-12",85.239998,85.980003,84.870003,85.440002,239000,84.819458
"2017-06-13",85.860001,86.18,85.480003,86.18,178500,85.554077
"2017-06-14",86.040001,86.769997,86.040001,86.25,212300,85.623566
"2017-06-15",85.519997,86.290001,84.900002,86.230003,200000,85.603722
"2017-06-16",86,86.360001,85.449997,85.949997,450200,85.325745
"2017-06-19",86.32,86.870003,85.93,86.75,166600,86.119942
"2017-06-20",86.949997,87.18,86.650002,86.889999,240200,86.258926
"2017-06-21",86.919998,87.940002,86.550003,87,185800,86.368126
"2017-06-22",86.959999,87.360001,86.410004,86.82,166200,86.18943
"2017-06-23",86.830002,87.68,86.330002,86.800003,474300,86.169579
"2017-06-26",86.970001,87.589996,86.610001,87.139999,307000,86.507103
"2017-06-27",87,87.510002,86.339996,86.370003,187900,85.742699
"2017-06-28",86.959999,87.370003,86.269997,86.93,169600,86.298637
"2017-06-29",86.870003,87.129997,85.779999,86.489998,196100,85.861824
"2017-06-30",86.93,87.330002,86.769997,86.860001,238500,86.229141
"2017-07-03",87.209999,87.669998,86.889999,87.080002,118800,86.447548
"2017-07-05",86.949997,87.5,86.440002,87.290001,243900,86.656021
"2017-07-06",86.830002,87.739998,86.690002,87.309998,393900,86.675873
"2017-07-07",87.690002,88.550003,87.139999,88.089996,245200,87.450203
"2017-07-10",87.949997,89.07,87.480003,88.300003,246000,87.658684
"2017-07-11",88.190002,88.580002,87.75,88.169998,180700,87.529625
"2017-07-12",88.860001,89.32,88.43,88.980003,142400,88.333748
"2017-07-13",89.07,89.269997,87.790001,88.629997,278600,87.986282
"2017-07-14",89.120003,89.970001,88.919998,89.43,305900,88.780472
"2017-07-17",89.5,89.970001,89.230003,89.790001,299300,89.137863
"2017-07-18",89.400002,90.410004,89.080002,89.739998,278500,89.088219
"2017-07-19",90.32,90.790001,89.68,90.089996,395300,89.435677
"2017-07-20",90.269997,90.480003,89.529999,89.699997,323100,89.048515
"2017-07-21",89.989998,89.989998,89,89.510002,271500,88.859894
"2017-07-24",88.940002,89.589996,88.589996,89.459999,390200,89.128891
"2017-07-25",89.959999,89.959999,88.519997,88.690002,596900,88.361748
"2017-07-26",88.779999,88.970001,87.989998,88.059998,317800,87.734077
"2017-07-27",88.5,88.5,87.260002,88,328900,87.674301
"2017-07-28",83.400002,83.699997,80.830002,82.309998,915000,82.005356
"2017-07-31",82.239998,83.5,80.690002,80.93,962700,80.630463
"2017-08-01",81,82.790001,80.980003,82.510002,463400,82.20462
"2017-08-02",82.540001,82.75,81.230003,82.25,348600,81.94558
"2017-08-03",82.300003,82.419998,81.82,82.25,322100,81.94558
"2017-08-04",82.5,82.779999,82.169998,82.360001,168100,82.055176
"2017-08-07",82.550003,82.949997,82.389999,82.739998,171600,82.433762
"2017-08-08",82.629997,82.93,82.400002,82.739998,163300,82.433762
"2017-08-09",82.5,82.800003,82.239998,82.480003,188900,82.174736
"2017-08-10",82.230003,82.739998,81.480003,81.510002,265100,81.208321
"2017-08-11",82.349998,82.349998,81.410004,82.139999,214100,81.835983
"2017-08-14",82.629997,83,82.510002,82.910004,147300,82.603142
"2017-08-15",82.739998,83,82.550003,82.75,190900,82.443733
"2017-08-16",82.860001,83.830002,82.699997,83.550003,248800,83.240768
"2017-08-17",83.269997,83.519997,82.120003,82.129997,221700,81.826019
"2017-08-18",82.010002,82.300003,81.639999,82.150002,191000,81.845955
"2017-08-21",82.059998,82.480003,81.339996,81.489998,126300,81.188393
"2017-08-22",81.980003,82.290001,81.730003,82.120003,190100,81.816063
"2017-08-23",81.75,82.529999,81.489998,81.610001,180500,81.307953
"2017-08-24",81.730003,82.059998,80.949997,81.080002,180000,80.779915
"2017-08-25",81.5,82.730003,81.5,82.389999,330100,82.08506
"2017-08-28",82.650002,82.779999,81.489998,81.860001,241600,81.557022
"2017-08-29",81.900002,82.099998,81.57,82,226300,81.696503
"2017-08-30",82.139999,83.18,81.900002,82.970001,207600,82.662918
"2017-08-31",83.18,83.660004,82.720001,83.610001,266700,83.300545
"2017-09-01",83.800003,84,83.419998,83.879997,183000,83.569542
"2017-09-05",83.720001,84.169998,83.18,83.25,191900,82.941879
"2017-09-06",83.330002,83.330002,82.489998,82.849998,240900,82.543358
"2017-09-07",82.959999,83.739998,82.32,83.610001,241000,83.300545
"2017-09-08",83.5,84.18,82.769997,83.82,207600,83.509766
"2017-09-11",84.32,85.169998,84,85.120003,209800,84.804962
"2017-09-12",84.93,85.440002,84.709999,85.199997,214500,84.884659
"2017-09-13",84.610001,85.040001,84.370003,84.5,229000,84.187256
"2017-09-14",84.510002,85.099998,84.160004,84.870003,166300,84.555885
"2017-09-15",84.739998,84.949997,84.480003,84.709999,399800,84.396477
"2017-09-18",84.970001,85.669998,84.739998,85.440002,198600,85.123779
"2017-09-19",85.43,85.760002,84.949997,85.559998,260300,85.243324
"2017-09-20",85.660004,86.239998,85.639999,86.120003,167200,85.801262
"2017-09-21",86.080002,86.760002,85.870003,86.150002,199600,85.831146
"2017-09-22",86.199997,86.269997,85.449997,85.720001,189400,85.40274
"2017-09-25",85.75,86.889999,85.349998,86.760002,222800,86.438889
"2017-09-26",87.099998,87.32,86.449997,86.75,199700,86.428925
"2017-09-27",86.800003,86.93,86.209999,86.540001,272900,86.219704
"2017-09-28",86.360001,87.510002,86.089996,87.080002,228200,86.757706
"2017-09-29",87.019997,87.129997,86.300003,86.309998,220700,85.990555
"2017-10-02",86.809998,87.970001,86.540001,87.879997,264000,87.554741
"2017-10-03",87.900002,88.440002,87.900002,88.43,202100,88.102707
"2017-10-04",88.260002,88.849998,87.919998,88.139999,231600,87.813782
"2017-10-05",88.510002,88.730003,87.620003,88.139999,178900,87.813782
"2017-10-06",88.040001,88.629997,87.900002,88.580002,162800,88.252151
"2017-10-09",88.68,88.790001,88.330002,88.459999,139400,88.132599
"2017-10-10",88.599998,88.870003,88.220001,88.470001,186700,88.142563
"2017-10-11",88.480003,88.800003,88.190002,88.360001,162500,88.032967
"2017-10-12",88.5,88.709999,88.220001,88.489998,168000,88.162483
"2017-10-13",88.690002,89.370003,88.690002,88.839996,187100,88.511185
"2017-10-16",88.919998,88.940002,87.970001,88.940002,236000,88.610825
"2017-10-17",89.300003,89.300003,88.709999,88.980003,175200,88.650673
"2017-10-18",88.730003,89.370003,88.32,88.599998,207400,88.272079
"2017-10-19",88.510002,88.830002,88.349998,88.639999,151600,88.311928
"2017-10-20",89.230003,89.309998,88.699997,89.199997,134800,88.869858
"2017-10-23",89.160004,89.68,88.919998,89.029999,418900,88.700485
"2017-10-24",89.059998,89.629997,88.830002,89.120003,189100,88.790154
"2017-10-25",89.07,89.470001,87.690002,88.489998,201800,88.162483
"2017-10-26",88.809998,89.239998,88.599998,88.940002,234700,88.610825
"2017-10-27",89.400002,89.400002,85.889999,87.93,531500,87.604561
"2017-10-30",87.459999,87.589996,86.25,86.459999,260400,86.139999
"2017-10-31",86.25,87.300003,86.120003,87.07,474700,87.07
"2017-11-01",87.830002,88.120003,87.209999,87.410004,279300,87.410004
"2017-11-02",87.089996,87.370003,86.32,86.599998,259200,86.599998
"2017-11-03",86.599998,87.18,86.599998,86.940002,216000,86.940002
"2017-11-06",87.019997,87.080002,85.68,85.849998,271600,85.849998
"2017-11-07",85.849998,86.110001,85.389999,85.720001,326900,85.720001
"2017-11-08",85.68,86.599998,85.639999,85.730003,226000,85.730003
